#F undulator_spectrum.spec

#S 1 Undulator spectrum calculation using SRW
#UD ElectronBeamDivergenceH = 5.774e-06
#UD ElectronBeamDivergenceV = 4.83e-06
#UD ElectronBeamSizeH = 1.212e-05
#UD ElectronBeamSizeV = 1.449e-05
#UD ElectronCurrent = 0.5
#UD ElectronEnergy = 2.0
#UD ElectronEnergySpread = 0.00102
#UD Kv = 3.07
#UD NPeriods = 138
#UD PeriodID = 0.0288
#UD distance = 10.0
#UD gapH = 0.001
#UD gapV = 0.001
#UD photonEnergyMin =  100.000000
#UD photonEnergyMax =  1200.000000
#UD photonEnergyPoints =  1100
#UD B0 =  1.141629
#N 4 
#L PhotonEnergy[eV]  PhotonWavelength[A]  Flux[phot/sec/0.1%bw]  Spectral Power[W/eV]
 100.0   123.98419739640718    0.0    0.0
 101.00090991810737   122.7555251699563    0.0    0.0
 102.00181983621474   121.55096604696834    0.0    0.0
 103.0027297543221   120.36981708361441    0.0    0.0
 104.00363967242949   119.21140239602055    0.0    0.0
 105.00454959053685   118.07507187058188    0.0    0.0
 106.00545950864422   116.96019994734033    0.0    0.0
 107.00636942675159   115.86618447164243    0.0    0.0
 108.00727934485896   114.79244560964743    0.0    0.0
 109.00818926296634   113.73842482358221    0.0    0.0
 110.00909918107371   112.70358390293755    0.0    0.0
 111.01000909918108   111.687404048075    0.0    0.0
 112.01091901728844   110.68938500296629    0.0    0.0
 113.01182893539581   109.70904423401892    0.0    0.0
 114.01273885350318   108.74591615215603    0.0    0.0
 115.01364877161055   107.79955137551543    167640023040.0    2.6858892562506133e-05
 116.01455868971793   106.86951603031488    173233963008.0    2.775514054599497e-05
 117.0154686078253   105.95539108759836    173028917248.0    2.772228859370835e-05
 118.01637852593267   105.05677173373284    174698201088.0    2.7989737347901075e-05
 119.01728844404003   104.17326677266934    179455148032.0    2.8751884265907353e-05
 120.0181983621474   103.30449805811334    177277222912.0    2.840294219499565e-05
 121.01910828025478   102.45009995387331    183751147520.0    2.944017926017159e-05
 122.02001819836215   101.60971882076919    183227711488.0    2.935631556287612e-05
 123.02092811646952   100.78301252858837    185571393536.0    2.9731814821265545e-05
 124.02183803457689   99.969649991673876    190787059712.0    3.0567456662174e-05
 125.02274795268426   99.169310726820598    188576579584.0    3.0213298703991538e-05
 126.02365787079162   98.381684432239354    196082040832.0    3.1415806157978145e-05
 127.02456778889899   97.606470586426568    195360686080.0    3.13002323860824e-05
 128.02547770700636   96.843378065850388    198557433856.0    3.181240784101256e-05
 129.02638762511373   96.092124780431249    204112822272.0    3.2702479184970396e-05
 130.0272975432211   95.35243732585829    201814032384.0    3.2334172443501894e-05
 131.02820746132849   94.624050651841316    210578145280.0    3.373833812190419e-05
 132.02911737943586   93.906707745452422    209524539392.0    3.356953184977511e-05
 133.03002729754323   93.200159328762979    213673132032.0    3.42342096634782e-05
 134.0309372156506   92.504163570028169    219810693120.0    3.5217555351870744e-05
 135.03184713375796   91.818485807716641    217634635776.0    3.486891253166305e-05
 136.03275705186533   91.142898286723408    227556376576.0    3.645855064640279e-05
 137.0336669699727   90.477179906143093    226325037056.0    3.626126830728168e-05
 138.03457688808007   89.821115978016806    231561658368.0    3.710026753108863e-05
 139.03548680618744   89.174497996499682    238116044800.0    3.815039600159254e-05
 140.0363967242948   88.537123416927557    236261933056.0    3.7853334552733795e-05
 141.0373066424022   87.908795444291272    247756980224.0    3.969504413549008e-05
 142.03821656050957   87.28932283065437    246238199808.0    3.945170868802567e-05
 143.03912647861694   86.678519681076011    252938584064.0    4.052522858855962e-05
 144.0400363967243   86.076205267625696    260211900416.0    4.16905423300453e-05
 145.04094631483167   85.482203851098788    258440298496.0    4.140670041228646e-05
 146.04185623293904   84.89634451006323    271893364736.0    4.356211923306664e-05
 147.04276615104641   84.318460976888304    270057734144.0    4.326801879117387e-05
 148.04367606915378   83.748391480425013    278463152128.0    4.461471520937554e-05
 149.04458598726114   83.185978595025333    286636769280.0    4.592427304020597e-05
 150.04549590536851   82.631069095604303    285180854272.0    4.569100974143703e-05
 151.04640582347588   82.083513818464752    300859555840.0    4.8203014651112015e-05
 152.04731574158325   81.54316752761909    298776231936.0    4.7869229365857753e-05
 153.04822565969062   81.009888786356427    309396602880.0    4.95708003689278e-05
 154.04913557779798   80.483539833816593    318425989120.0    5.1017467522317914e-05
 155.05004549590535   79.963986466344778    317700341760.0    5.0901205998804196e-05
 156.05095541401275   79.451097923411936    336132177920.0    5.3854311696201e-05
 157.05186533212012   78.944746777897734    333878984704.0    5.349331034691896e-05
 158.05277525022748   78.44480883054203    347247640576.0    5.563520513588287e-05
 159.05368516833485   77.951163008381855    357570379776.0    5.728909027676844e-05
 160.05459508644222   77.463691266999149    357747687424.0    5.73174980935999e-05
 161.05550500454959   76.982278496413272    379665580032.0    6.0829131604974175e-05
 162.05641492265696   76.506812430461267    377197297664.0    6.0433669174619934e-05
 163.05732484076432   76.037183559515356    394091167744.0    6.31403655423208e-05
 164.05823475887172   75.573285046395711    406021603328.0    6.505183203918531e-05
 165.05914467697909   75.115012645342603    407686873088.0    6.531863766686504e-05
 166.06005459508646   74.662264623918617    433939775488.0    6.952481631220745e-05
 167.06096451319382   74.214941687718678    431632580608.0    6.91551629425709e-05
 168.06187443130119   73.772946907770162    453095424000.0    7.259388953242633e-05
 169.06278434940856   73.336185650512107    467132809216.0    7.48429265734502e-05
 170.06369426751593   72.904565510246911    470779002880.0    7.542711119778719e-05
 171.0646041856233   72.47799624396356    502596796416.0    8.052488369066925e-05
 172.06551410373066   72.056389708435475    500748681216.0    8.022878299407074e-05
 173.06642402183803   71.639659799501302    528537059328.0    8.468097196817041e-05
 174.0673339399454   71.227722393440402    545490960384.0    8.739728635849839e-05
 175.06824385805277   70.820495290359403    552328757248.0    8.849282218582641e-05
 176.06915377616014   70.417898159509818    591713009664.0    9.480287503068653e-05
 177.0700636942675   70.019852486460181    590889156608.0    9.467087922015675e-05
 178.07097361237487   69.626281522049823    627232669696.0    0.00010049375191888999
 179.07188353048224   69.237110233054622    648616148992.0    0.0001039197629788312
 180.07279344858961   68.852265254497979    660205862912.0    0.00010577663984726962
 181.073703366697   68.471674843543454    709725454336.0    0.00011371055301237973
 182.07461328480437   68.095268834908296    710859882496.0    0.00011389230843997265
 183.07552320291174   67.722978597739299    759349116928.0    0.00012166114021671671
 184.07643312101911   67.354736993895941    787042664448.0    0.0001260981356550725
 185.07734303912648   66.990478337586779    806040567808.0    0.00012914193531583348
 186.07825295723384   66.630138356308805    870484869120.0    0.0001394670506064212
 187.07916287534124   66.273654153040596    875770478592.0    0.00014031389859869294
 188.08007279344861   65.920964169642701    942089109504.0    0.00015093931459575998
 189.08098271155598   65.572008151420349    979763200000.0    0.00015697536929601947
 190.08189262966334   65.226727112805875    1011118047232.0    0.00016199896961440605
 191.08280254777071   64.885063304119754    1097841901568.0    0.00017589366280268645
 192.08371246587808   64.546960179370672    1110907420672.0    0.00017798698972739093
 193.08462238398545   64.21236236505726    1204868874240.0    0.00019304127414369434
 194.08553230209282   63.881215629935063    1259355635712.0    0.0002017710156810488
 195.08644222020018   63.553466855714319    1311428575232.0    0.00021011402030857645
 196.08735213830755   63.229064008654987    1433795952640.0    0.00022971943543174722
 197.08826205641492   62.90795611202747    1462581985280.0    0.00023433146628188659
 198.08917197452229   62.590093219408132    1602069725184.0    0.0002566798658581286
 199.09008189262966   62.275426388780389    1686844997632.0    0.0002702623618119422
 200.09099181073702   61.963907657413145    1776895000576.0    0.000284689962753927
 201.09190172884439   61.65549001748937    1960743010304.0    0.00031414566105060824
 202.09281164695176   61.350127392459022    2022340952064.0    0.0003240147392683355
 203.09372156505913   61.047774614091175    2243503587328.0    0.0003594488996297853
 204.09463148316649   60.748387400201295    2388428587008.0    0.00038266844425545964
 205.09554140127389   60.451922333030829    2554693156864.0    0.0004093069649245248
 206.09645131938126   60.158336838256723    2856522612736.0    0.0004576653746912152
 207.09736123748863   59.867589164609619    2994244419584.0    0.00047973084060183514
 208.098271155596   59.579638364080232    3380205584384.0    0.0005415686360797647
 209.09918107370336   59.2944442726943    3661136920576.0    0.0005865787979694574
 210.10009099181073   59.011967491836941    4002376318976.0    0.0006412513765906912
 211.10100090991813   58.732169370108394    4567793139712.0    0.0007318411377097195
 212.1019108280255   58.455011985693467    4911149875200.0    0.0007868529511290279
 213.10282074613286   58.180458129227787    5693809623040.0    0.000912248866132075
 214.10373066424023   57.9084712871447    6350074019840.0    0.0010173940134937125
 215.1046405823476   57.63901562548709    7190063611904.0    0.0011519751821057395
 216.10555050045497   57.372055974169051    8504589942784.0    0.0013625855175819336
 217.10646041856234   57.107557811672876    9567216861184.0    0.0015328371181112565
 218.1073703366697   56.845487250167494    11635855982592.0    0.0018642696418304716
 219.10828025477707   56.585811021034672    13752583847936.0    0.0022034068316754765
 220.10919017288444   56.328496460790198    16685762347008.0    0.0026733538332601157
 221.11010009099181   56.073511497387443    21343139528704.0    0.0034195479167361885
 222.11101000909918   55.820824636891231    26648019730432.0    0.004269483420271528
 223.11191992720654   55.570404950510401    36560997187584.0    0.0058577174927081635
 224.11282984531391   55.322222061977875    51082575216640.0    0.008184330774235811
 225.11373976342128   55.076246135267382    78170661322752.0    0.012524320600378806
 226.11464968152865   54.832447862636414    146336062111744.0    0.023445621749537293
 227.11555959963601   54.590798452985382    426879215468544.0    0.0683935898929147
 228.11646951774341   54.351269620523126    1719646789042176.0    0.2755177881437164
 229.11737943585078   54.113833573729735    4752327625932800.0    0.7614068216651501
 230.11828935395815   53.878463004607156    6397075688259584.0    1.0249245109217575
 231.11919927206552   53.645131078209246    3258972060516352.0    0.5221448843199702
 232.12010919017288   53.413811422442762    582264622678016.0    0.09328907655736508
 233.12101910828025   53.184478118130947    185515961745408.0    0.02972293366937199
 234.12192902638762   52.957105689332103    92020345405440.0    0.014743284604653668
 235.12283894449499   52.731669093905381    60623895396352.0    0.009713018786585993
 236.12374886260235   52.508143714316574    41975352918016.0    0.006725192909507429
 237.12465878070972   52.286505348676705    29553946787840.0    0.004735064259584451
 238.12556869881712   52.066730202006681    24030906155008.0    0.0038501756018192636
 239.12647861692449   51.848794877721268    18083217408000.0    0.002897250815994118
 240.12738853503186   51.632676369326063    15022835105792.0    0.002406923518463344
 241.12829845313922   51.418352052321318    12599488937984.0    0.0020186606610466187
 242.12920837124659   51.205799676306462    10178403500032.0    0.0016307600124820163
 243.13011828935396   50.99499735727975    9169892540416.0    0.0014691787443502835
 244.13102820746133   50.785923570127281    7580293267456.0    0.0012144968651925645
 245.13193812556869   50.578557141296024    6748127625216.0    0.0010811692315295701
 246.13284804367606   50.372877241645654    6019630497792.0    0.0009644511249417009
 247.13375796178343   50.16886337947404    5137843617792.0    0.0008231732925752834
 248.1346678798908   49.966495393711583    4830165204992.0    0.0007738777766039823
 249.13557779799817   49.765753447279586    4164491411456.0    0.0006672250776957197
 250.13648771610556   49.56661802060804    3839278972928.0    0.0006151203011154279
 251.13739763421293   49.369069905308507    3529026043904.0    0.0005654123021737303
 252.1383075523203   49.173090197997652    3105475788800.0    0.0004975520705275798
 253.13921747042767   48.97866029426725    2988394414080.0    0.00047879356639682905
 254.14012738853503   48.785761882796812    2638641364992.0    0.00042275695056659824
 255.1410373066424   48.594376939604672    2486090596352.0    0.00039831562306659045
 256.14194722474974   48.404487722433927    2325030109184.0    0.0003725108883590676
 257.14285714285711   48.21607676526947    2087259209728.0    0.0003344157907375686
 258.14376706096448   48.029126872982559    2038181003264.0    0.00032655259523882695
 259.14467697907185   47.843621116099541    1827504521216.0    0.0002927985018298573
 260.14558689717921   47.659542825691332    1748066893824.0    0.0002800711908879289
 261.14649681528658   47.476875588380324    1652647657472.0    0.0002647833439221525
 262.14740673339401   47.295603241461819    1505385644032.0    0.00024118936841560217
 263.14831665150137   47.115709868136747    1484498927616.0    0.0002378429475429027
 264.14922656960874   46.937179792852731    1345659600896.0    0.000215598435211063
 265.15013648771611   46.759997576750678    1301804613632.0    0.00020857209168107676
 266.15104640582348   46.58414801321419    1239736385536.0    0.00019862766528608747
 267.15195632393085   46.409616123518902    1142032564224.0    0.00018297378745919674
 268.15286624203821   46.236387152579397    1133941489664.0    0.00018167745440947857
 269.15377616014558   46.064446564790899    1036313165824.0    0.00016603567261104464
 270.15468607825295   45.893780039963453    1011545145344.0    0.00016206739827538948
 271.15559599636032   45.724373469346141    967986053120.0    0.0001550884623569331
 272.15650591446769   45.556212951739056    900050124800.0    0.00014420392675026822
 273.15741583257505   45.389284789690706    898012151808.0    0.0001438774074821078
 274.15832575068248   45.223575485778788    826050412544.0    0.0001323478658580192
 275.15923566878985   45.059071738972051    812160974848.0    0.00013012253262276025
 276.16014558689722   44.895760441071324    779978604544.0    0.00012496634849246057
 277.16105550500458   44.733628673227663    730942603264.0    0.00011710991500962706
 278.16196542311195   44.57266370253565    731822882816.0    0.00011725095134142533
 279.16287534121932   44.412852978699959    676897619968.0    0.00010845095413878929
 280.16378525932669   44.25418413077346    669540220928.0    0.00010727216886561085
 281.16469517743406   44.096644963964877    644514185216.0    0.00010326255593270363
 282.16560509554142   43.940223456514502    608200622080.0    9.744448174525923e-05
 283.16651501364879   43.78490775663608    610449489920.0    9.780479009291092e-05
 284.16742493175616   43.630686179523366    567220633600.0    9.08787637989283e-05
 285.16833484986353   43.477547204419743    563717865472.0    9.03175584786518e-05
 286.16924476797089   43.325479471749283    543680561152.0    8.710722842611592e-05
 287.17015468607826   43.174471780307819    516361355264.0    8.273020912885838e-05
 288.17106460418563   43.02451308451262    519148961792.0    8.317683292957349e-05
 289.171974522293   42.875592491709085    484266508288.0    7.75880477815483e-05
 290.17288444040037   42.727699259533232    483522412544.0    7.746883050108095e-05
 291.17379435850773   42.580822793328593    466863456256.0    7.479977147192467e-05
 292.1747042766151   42.434952643616157    445968678912.0    7.145205909618684e-05
 293.17561419472247   42.290078503616229    448842858496.0    7.19125534295334e-05
 294.17652411282984   42.146190206820755    420469768192.0    6.736668323504179e-05
 295.17743403093721   42.003277724615138    421209767936.0    6.748524426396526e-05
 296.17834394904457   41.861331163948236    407081451520.0    6.522163843866727e-05
 297.17925386715194   41.72034076504945    390959529984.0    6.263862186193215e-05
 298.18016378525931   41.580296899191794    393618948096.0    6.306470761433e-05
 299.18107370336668   41.44119006649985    370229608448.0    5.931732229833238e-05
 300.18198362147405   41.303010893801613    371879739392.0    5.9581702420305925e-05
 301.18289353958141   41.165750132523108    359742701568.0    5.7637134595568114e-05
 302.18380345768878   41.029398656624963    347174404096.0    5.5623471358278295e-05
 303.18471337579615   40.893947460579689    349601202176.0    5.6012287272996134e-05
 304.18562329390352   40.759387657389027    329806118912.0    5.284076531175912e-05
 305.18653321201089   40.625710476640279    332252938240.0    5.323278898402343e-05
 306.18744313011825   40.492907262600745    321615593472.0    5.152849847455555e-05
 307.18835304822562   40.360969472349382    311858790400.0    4.996528629698475e-05
 308.18926296633299   40.229888673944934    313969508352.0    5.030346059256448e-05
 309.19017288444036   40.099656544629632    297339486208.0    4.763903732431417e-05
 310.19108280254778   39.970264869067613    300118409216.0    4.808426987175625e-05
 311.19199272065515   39.841705537617393    290639839232.0    4.656563554905811e-05
 312.19290263876252   39.713970544637569    283089141760.0    4.5355880453020904e-05
 313.19381255686989   39.587051986824953    284857139200.0    4.563914486942112e-05
 314.19472247497725   39.460942061584561    270749286400.0    4.337881767683634e-05
 315.19563239308462   39.335633065430571    273706762240.0    4.385265754157922e-05
 316.19654231119199   39.211117392417691    265212493824.0    4.2491725714887724e-05
 317.19745222929936   39.087387532602264    259362193408.0    4.155440425977055e-05
 318.19836214740673   38.964436070532315    260835704832.0    4.1790486815172e-05
 319.19927206551409   38.842255683766105    248722620416.0    3.9849756749462794e-05
 320.20018198362146   38.720839141418438    251773222912.0    4.033851714930733e-05
 321.20109190172889   38.600179302734126    244133953536.0    3.911457126988527e-05
 322.20200181983625   38.480269115688074    239647162368.0    3.839570807870712e-05
 323.20291173794362   38.361101615611339    240835821568.0    3.858615227674101e-05
 324.20382165605099   38.242669923842676    230478168064.0    3.6926673247695405e-05
 325.20473157415836   38.124967246404999    233599746048.0    3.742680517429228e-05
 326.20564149226573   38.007986872706134    226685124608.0    3.631896069300724e-05
 327.20655141037309   37.891722174263485    223325454336.0    3.578068217666772e-05
 328.20746132848046   37.776166603452033    224139444224.0    3.591109773347984e-05
 329.20837124658783   37.661313692275151    215309320192.0    3.449635590519638e-05
 330.2092811646952   37.547157051157754    218204405760.0    3.496019974642289e-05
 331.21019108280257   37.4336903677614    212054917120.0    3.397494305353457e-05
 332.21110100090993   37.320907405820734    209649467392.0    3.358954752186343e-05
 333.2120109190173   37.208802004000951    210219450368.0    3.3680868861703555e-05
 334.21292083712467   37.097368074775794    202632937472.0    3.246537550216667e-05
