#F undulator_spectrum.spec

#S 1 Undulator spectrum calculation using US
#UD ElectronBeamDivergenceH = 1.05e-05
#UD ElectronBeamDivergenceV = 3.9e-06
#UD ElectronBeamSizeH = 0.000395
#UD ElectronBeamSizeV = 9.9e-06
#UD ElectronCurrent = 0.2
#UD ElectronEnergy = 6.04
#UD ElectronEnergySpread = 0.001
#UD Kv = 1.68
#UD NPeriods = 222
#UD PeriodID = 0.018
#UD distance = 30.0
#UD gapH = 0.001
#UD gapV = 0.001
#UD photonEnergyMin =  3000.000000
#UD photonEnergyMax =  55000.000000
#UD photonEnergyPoints =  500
#N 8
#L  Energy(eV)  Wavelength(A)  Flux(ph/s/0.1%bw)  SpectralPower(W/ev)  p1  p2  p3  p4
#UD ****************** Start US v. 1.92 at 2018-02-27 11:54:40 ******************
#UD 
#UD US run
#UD energy   6.040 GeV   current 200.0 mA
#UD sigx    0.3950  mm   sigy   0.0099 mm   sigx1  0.0105 mr   sigy1  0.0039 mr
#UD period   1.800  cm   N         222      Kx      0.000      Ky      1.680
#UD emin    3000.0  eV   emax  55000.0 eV   ne        500
#UD d       30.000   m   xpc     0.000 mm   ypc     0.000 mm
#UD xps      1.000  mm   yps     1.000 mm   nxp        50      nyp        50
#UD mode         4       method      4      iharm       0   
#UD nphi        20       nalpha     15      calpha2   2.0
#UD nomega      64       comega    8.0      nsigma      3
#UD 
#UD e1      7982.2  eV   l1      1.553  A
#UD ptot   18431.2   W   pd      693.7  W/mm^2
#UD 
#UD 
#UD Flux through   1.000 mm x  1.000 mm pinhole at  0.000 mm,  0.000 mm @ 30.000 m:
#UD Integrated flux   1.600E+17 ph/s
#UD Integrated power      451.4 W
#UD Contributing harmonics    1 to    9
#UD 
#UD Energy(eV)   Flux(ph/s/0.1%bw)   p1      p2      p3      p4
3000 4.13281 0 0 0 0 0 0 
3104 3.99434 0 0 0 0 0 0 
3208 3.86484 0 0 0 0 0 0 
3312 3.74348 0 0 0 0 0 0 
3416 3.62951 0 0 0 0 0 0 
3520 3.52228 0 0 0 0 0 0 
3624 3.4212 0 0 0 0 0 0 
3728 3.32576 0 0 0 0 0 0 
3832 3.2355 0 0 0 0 0 0 
3936 3.15001 0 0 0 0 0 0 
4040 3.06892 0 0 0 0 0 0 
4144 2.9919 0 0 0 0 0 0 
4248 2.91865 0 0 0 0 0 0 
4352 2.8489 0 0 0 0 0 0 
4456 2.78241 0 0 0 0 0 0 
4560 2.71895 0 0 0 0 0 0 
4664 2.65832 0 0 0 0 0 0 
4768 2.60034 0 0 0 0 0 0 
4872 2.54483 0 0 0 0 0 0 
4976 2.49164 0 0 0 0 0 0 
5080 2.44063 0 0 0 0 0 0 
5184 2.39167 0 0 0 0 0 0 
5288 2.34463 0 0 0 0 0 0 
5392 2.29941 0 0 0 0 0 0 
5496 2.2559 0 0 0 0 0 0 
5600 2.214 0 0 0 0 0 0 
5704 2.17364 0 0 0 0 0 0 
5808 2.13471 0 0 0 0 0 0 
5912 2.09716 0 0 0 0 0 0 
6016 2.06091 1.34252e+06 2.15095e-10 0.888 0 0 0.112 
6120 2.02589 1.11958e+08 1.79376e-08 0.931 0 0 0.069 
6224 1.99203 1.02689e+09 1.64526e-07 0.943 0 0 0.057 
6328 1.9593 1.81134e+10 2.90209e-06 0.927 0 0 0.073 
6432 1.92762 1.42516e+11 2.28336e-05 0.949 0 0 0.051 
6536 1.89694 4.69526e+11 7.52263e-05 0.959 0 0 0.041 
6640 1.86723 1.17047e+12 0.00018753 0.965 0 0 0.035 
6744 1.83844 2.55363e+12 0.000409136 0.971 0 0 0.029 
6848 1.81052 5.16796e+12 0.000827998 0.975 0 0 0.025 
6952 1.78343 9.95583e+12 0.0015951 0.979 0 0 0.021 
7056 1.75715 1.85386e+13 0.00297022 0.983 0 0 0.017 
7160 1.73162 3.37382e+13 0.00540545 0.986 0 0 0.014 
7264 1.70683 6.04138e+13 0.00967935 0.988 0 0 0.012 
7368 1.68274 1.07389e+14 0.0172056 0.991 0 0 0.009 
7472 1.65932 1.90809e+14 0.030571 0.993 0 0 0.007 
7576 1.63654 3.43734e+14 0.0550723 0.995 0 0 0.005 
7680 1.61438 6.48476e+14 0.103897 0.997 0 0 0.003 
7784 1.59281 1.32323e+15 0.212004 0.999 0 0 0.001 
7888 1.57181 2.54268e+15 0.407383 1 0 0 0 
7992 1.55135 8.12991e+14 0.130256 1 0 0 0 
8096 1.53143 3.08078e+13 0.00493595 1 0 0 0 
8200 1.512 6.8999e+12 0.00110549 1 0 0 0 
8304 1.49307 0 0 0 0 0 0 
8408 1.4746 0 0 0 0 0 0 
8512 1.45658 0 0 0 0 0 0 
8616 1.439 0 0 0 0 0 0 
8720 1.42184 0 0 0 0 0 0 
8824 1.40508 0 0 0 0 0 0 
8928 1.38871 0 0 0 0 0 0 
9032 1.37272 0 0 0 0 0 0 
9136 1.35709 0 0 0 0 0 0 
9240 1.34182 0 0 0 0 0 0 
9344 1.32689 0 0 0 0 0 0 
9448 1.31228 0 0 0 0 0 0 
9552 1.29799 0 0 0 0 0 0 
9656 1.28401 0 0 0 0 0 0 
9760 1.27033 0 0 0 0 0 0 
9864 1.25694 0 0 0 0 0 0 
9968 1.24382 0 0 0 0 0 0 
10072 1.23098 0 0 0 0 0 0 
10176 1.2184 0 0 0 0 0 0 
10280 1.20607 0 0 0 0 0 0 
10384 1.19399 0 0 0 0 0 0 
10488 1.18215 0 0 0 0 0 0 
10592 1.17055 0 0 0 0 0 0 
10696 1.15916 0 0 0 0 0 0 
10800 1.148 0 0 0 0 0 0 
10904 1.13705 0 0 0 0 0 0 
11008 1.12631 0 0 0 0 0 0 
11112 1.11577 0 0 0 0 0 0 
11216 1.10542 0 0 0 0 0 0 
11320 1.09527 0 0 0 0 0 0 
11424 1.0853 0 0 0 0 0 0 
11528 1.0755 0 0 0 0 0 0 
11632 1.06589 0 0 0 0 0 0 
11736 1.05644 0 0 0 0 0 0 
11840 1.04716 0 0 0 0 0 0 
11944 1.03805 0 0 0 0 0 0 
12048 1.02909 0 0 0 0 0 0 
12152 1.02028 0 0 0 0 0 0 
12256 1.01162 151268 2.42358e-11 0.975 0 0 0.025 
12360 1.00311 2.76314e+07 4.42703e-09 0.983 0 0 0.017 
12464 0.994738 2.98104e+08 4.77615e-08 0.987 0 0 0.013 
12568 0.986507 4.35187e+09 6.97246e-07 0.984 0 0 0.016 
12672 0.978411 4.42258e+10 7.08575e-06 0.987 0 0 0.013 
12776 0.970446 1.56376e+11 2.50542e-05 0.991 0 0 0.009 
12880 0.96261 3.48714e+11 5.58702e-05 0.993 0 0 0.007 
12984 0.9549 6.43944e+11 0.000103171 0.994 0 0 0.006 
13088 0.947312 1.07256e+12 0.000171842 0.995 0 0 0.005 
13192 0.939844 1.67126e+12 0.000267765 0.996 0 0 0.004 
13296 0.932492 2.48615e+12 0.000398325 0.996 0 0 0.004 
13400 0.925255 3.5822e+12 0.000573931 0.997 0 0 0.003 
13504 0.918129 5.03627e+12 0.0008069 0.998 0 0 0.002 
13608 0.911113 6.94022e+12 0.00111195 0.998 0 0 0.002 
13712 0.904202 9.40586e+12 0.00150698 0.999 0 0 0.001 
13816 0.897396 1.25658e+13 0.00201327 0.999 0 0 0.001 
13920 0.890691 1.65943e+13 0.0026587 0.999 0 0 0.001 
14024 0.884086 2.16747e+13 0.00347266 1 0 0 0 
14128 0.877578 2.803e+13 0.0044909 1 0 0 0 
14232 0.871165 3.59304e+13 0.00575668 1 0 0 0 
14336 0.864845 4.56447e+13 0.00731309 1 0 0 0 
14440 0.858616 5.75243e+13 0.00921641 1 0 0 0 
14544 0.852477 7.18723e+13 0.0115152 1 0 0 0 
14648 0.846424 8.90755e+13 0.0142715 0.999 0 0 0.001 
14752 0.840457 1.0946e+14 0.0175375 0.999 0 0 0.001 
14856 0.834573 1.33268e+14 0.0213519 0.998 0 0 0.002 
14960 0.828771 1.60591e+14 0.0257295 0.996 0 0 0.004 
15064 0.82305 1.91155e+14 0.0306264 0.995 0 0 0.005 
15168 0.817406 2.24509e+14 0.0359703 0.992 0 0 0.008 
15272 0.81184 2.59317e+14 0.0415472 0.988 0 0 0.012 
15376 0.806349 2.93103e+14 0.0469602 0.981 0 0 0.019 
15480 0.800932 3.20782e+14 0.0513949 0.969 0 0 0.031 
15584 0.795586 3.32837e+14 0.0533264 0.952 0 0 0.048 
15688 0.790312 3.13423e+14 0.0502159 0.931 0 0 0.069 
15792 0.785108 2.44125e+14 0.0391132 0.914 0 0 0.086 
15896 0.779971 1.16832e+14 0.0187185 0.909 0 0 0.091 
16000 0.774901 3.63953e+12 0.000583117 0.911 0 0 0.089 
16104 0.769897 6.43754e+11 0.000103141 0.909 0 0 0.091 
16208 0.764957 4.28755e+10 6.86941e-06 0.91 0 0 0.09 
16312 0.76008 0 0 0 0 0 0 
16416 0.755264 0 0 0 0 0 0 
16520 0.75051 0 0 0 0 0 0 
16624 0.745814 0 0 0 0 0 0 
16728 0.741178 0 0 0 0 0 0 
16832 0.736598 0 0 0 0 0 0 
16936 0.732075 0 0 0 0 0 0 
17040 0.727607 0 0 0 0 0 0 
17144 0.723193 0 0 0 0 0 0 
17248 0.718832 0 0 0 0 0 0 
17352 0.714524 0 0 0 0 0 0 
17456 0.710267 0 0 0 0 0 0 
17560 0.70606 0 0 0 0 0 0 
17664 0.701903 0 0 0 0 0 0 
17768 0.697795 0 0 0 0 0 0 
17872 0.693734 0 0 0 0 0 0 
17976 0.689721 0 0 0 0 0 0 
18080 0.685753 0 0 0 0 0 0 
18184 0.681831 0 0 0 0 0 0 
18288 0.677954 0 0 0 0 0 0 
18392 0.67412 0 0 0 0 0 0 
18496 0.67033 36802.5 5.89641e-12 0.999 0 0 0.001 
18600 0.666582 6.30241e+06 1.00976e-09 0.999 0 0 0.001 
18704 0.662875 7.55873e+07 1.21104e-08 1 0 0 0 
18808 0.65921 8.72618e+08 1.39809e-07 0.999 0 0 0.001 
18912 0.655585 1.18002e+10 1.89061e-06 1 0 0 0 
19016 0.651999 4.61431e+10 7.39293e-06 1 0 0 0 
19120 0.648453 1.13239e+11 1.8143e-05 1 0 0 0 
19224 0.644945 2.10043e+11 3.36526e-05 1 0 0 0 
19328 0.641475 3.37321e+11 5.40448e-05 1 0 0 0 
19432 0.638041 4.99783e+11 8.00741e-05 1 0 0 0 
19536 0.634645 7.00987e+11 0.00011231 1 0 0 0 
19640 0.631284 9.44675e+11 0.000151354 1 0 0 0 
19744 0.627959 1.23490e+12 0.000197854 1 0 0 0 
19848 0.624668 1.57554e+12 0.000252429 0.999 0 0 0.001 
19952 0.621412 1.97201e+12 0.00031595 0.999 0 0 0.001 
20056 0.61819 2.42884e+12 0.000389143 0.999 0 0 0.001 
20160 0.615001 2.94928e+12 0.000472526 0.998 0 0 0.002 
20264 0.611845 3.53946e+12 0.000567083 0.998 0 0 0.002 
20368 0.608721 4.19862e+12 0.000672693 0.997 0 0 0.003 
20472 0.605628 4.92902e+12 0.000789716 0.996 0 0 0.004 
20576 0.602567 5.72881e+12 0.000917856 0.995 0 0 0.005 
20680 0.599537 6.59479e+12 0.0010566 0.994 0 0 0.006 
20784 0.596537 7.52524e+12 0.00120568 0.993 0 0 0.007 
20888 0.593567 8.50514e+12 0.00136267 0.991 0 0 0.009 
20992 0.590626 9.52301e+12 0.00152575 0.99 0 0 0.01 
21096 0.587714 1.05593e+13 0.00169178 0.987 0 0 0.013 
21200 0.584831 1.15899e+13 0.0018569 0.985 0 0 0.015 
21304 0.581976 1.25851e+13 0.00201636 0.982 0 0 0.018 
21408 0.579149 1.35043e+13 0.00216362 0.978 0 0 0.022 
21512 0.576349 1.43069e+13 0.00229222 0.973 0 0 0.027 
21616 0.573576 1.49368e+13 0.00239314 0.967 0 0 0.033 
21720 0.57083 1.53434e+13 0.00245828 0.96 0 0 0.04 
21824 0.568109 1.54647e+13 0.00247771 0.95 0 0 0.05 
21928 0.565415 1.52439e+13 0.00244234 0.936 0 0 0.064 
22032 0.562746 1.46345e+13 0.0023447 0.918 0 0 0.082 
22136 0.560102 1.36053e+13 0.00217981 0.891 0 0 0.109 
22240 0.557483 1.21669e+13 0.00194935 0.851 0 0 0.149 
22344 0.554888 1.03861e+13 0.00166404 0.789 0 0 0.211 
22448 0.552317 8.43803e+12 0.00135192 0.688 0 0 0.312 
22552 0.54977 6.65689e+12 0.00106655 0.53 0 0 0.47 
22656 0.547247 5.6357e+12 0.000902938 0.345 0 0 0.655 
22760 0.544746 6.38106e+12 0.00102236 0.325 0 0 0.675 
22864 0.542268 1.05951e+13 0.00169753 0.532 0 0 0.468 
22968 0.539813 2.13345e+13 0.00341816 0.737 0 0 0.263 
23072 0.537379 4.30248e+13 0.00689334 0.856 0 0 0.144 
23176 0.534968 8.27263e+13 0.0132542 0.919 0 0 0.081 
23280 0.532578 1.50488e+14 0.0241109 0.955 0 0 0.045 
23384 0.53021 2.58086e+14 0.04135 0.975 0 0 0.025 
23488 0.527862 4.1456e+14 0.0664198 0.986 0 0 0.014 
23592 0.525535 6.17469e+14 0.0989295 0.993 0 0 0.007 
23696 0.523228 8.46532e+14 0.135629 0.997 0 0 0.003 
23800 0.520942 1.07021e+15 0.171466 0.999 0 0 0.001 
23904 0.518676 1.23901e+15 0.198512 1 0 0 0 
24008 0.516429 2.69644e+13 0.00432018 1 0 0 0 
24112 0.514201 5.88885e+12 0.000943498 1 0 0 0 
24216 0.511993 6.40722e+11 0.000102655 1 0 0 0 
24320 0.509803 0 0 0 0 0 0 
24424 0.507633 0 0 0 0 0 0 
24528 0.50548 0 0 0 0 0 0 
24632 0.503346 0 0 0 0 0 0 
24736 0.50123 0 0 0 0 0 0 
24840 0.499131 944137 1.51267e-10 0.989 0 0 0.011 
24944 0.49705 1.46401e+07 2.34561e-09 0.991 0 0 0.009 
25048 0.494986 1.51606e+08 2.42899e-08 0.99 0 0 0.01 
25152 0.49294 2.44265e+09 3.91356e-07 0.991 0 0 0.009 
25256 0.49091 1.02126e+10 1.63624e-06 0.992 0 0 0.008 
25360 0.488897 2.67906e+10 4.29233e-06 0.992 0 0 0.008 
25464 0.4869 5.30902e+10 8.50599e-06 0.992 0 0 0.008 
25568 0.484919 8.67388e+10 1.38971e-05 0.992 0 0 0.008 
25672 0.482955 1.26507e+11 2.02686e-05 0.991 0 0 0.009 
25776 0.481006 1.72239e+11 2.75957e-05 0.99 0 0 0.01 
25880 0.479073 2.23218e+11 3.57635e-05 0.989 0 0 0.011 
25984 0.477156 2.79721e+11 4.48162e-05 0.988 0 0 0.012 
26088 0.475254 3.40257e+11 5.45151e-05 0.986 0 0 0.014 
26192 0.473367 4.04262e+11 6.47699e-05 0.984 0 0 0.016 
26296 0.471495 4.70713e+11 7.54166e-05 0.982 0 0 0.018 
26400 0.469637 5.389e+11 8.63412e-05 0.979 0 0 0.021 
26504 0.467794 6.07184e+11 9.72816e-05 0.976 0 0 0.024 
26608 0.465966 6.74247e+11 0.000108026 0.973 0 0 0.027 
26712 0.464152 7.38744e+11 0.00011836 0.969 0 0 0.031 
26816 0.462352 7.98824e+11 0.000127986 0.964 0 0 0.036 
26920 0.460565 8.52785e+11 0.000136631 0.958 0 0 0.042 
27024 0.458793 8.9859e+11 0.00014397 0.952 0 0 0.048 
27128 0.457034 9.34239e+11 0.000149682 0.943 0 0 0.057 
27232 0.455289 9.57125e+11 0.000153348 0.933 0 0 0.067 
27336 0.453556 9.65834e+11 0.000154744 0.92 0 0 0.08 
27440 0.451837 9.58561e+11 0.000153578 0.904 0 0 0.096 
27544 0.450131 9.33941e+11 0.000149634 0.884 0 0 0.116 
27648 0.448438 8.91834e+11 0.000142887 0.857 0 0 0.143 
27752 0.446758 8.32132e+11 0.000133322 0.82 0 0 0.18 
27856 0.44509 7.56952e+11 0.000121277 0.769 0 0 0.231 
27960 0.443434 6.69351e+11 0.000107242 0.698 0 0 0.302 
28064 0.441791 5.74911e+11 9.21109e-05 0.595 0 0 0.405 
28168 0.44016 4.82201e+11 7.72571e-05 0.447 0 0 0.553 
28272 0.438541 4.03414e+11 6.4634e-05 0.248 0 0 0.752 
28376 0.436933 3.55099e+11 5.68932e-05 0.033 0 0 0.967 
28480 0.435338 3.58783e+11 5.74834e-05 -0.077 0 0 0.923 
28584 0.433754 4.42981e+11 7.09734e-05 0.025 0 0 0.975 
28688 0.432181 6.43279e+11 0.000103065 0.255 0 0 0.745 
28792 0.43062 1.00682e+12 0.000161311 0.474 0 0 0.526 
28896 0.42907 1.59009e+12 0.000254761 0.635 0 0 0.365 
29000 0.427532 2.46152e+12 0.000394378 0.744 0 0 0.256 
29104 0.426004 3.70594e+12 0.000593757 0.817 0 0 0.183 
29208 0.424487 5.42447e+12 0.000869096 0.866 0 0 0.134 
29312 0.422981 7.74118e+12 0.00124027 0.901 0 0 0.099 
29416 0.421486 1.07898e+13 0.00172871 0.926 0 0 0.074 
29520 0.420001 1.47421e+13 0.00236195 0.944 0 0 0.056 
29624 0.418526 1.97876e+13 0.00317033 0.957 0 0 0.043 
29728 0.417062 2.61324e+13 0.00418687 0.968 0 0 0.032 
29832 0.415608 3.40271e+13 0.00545174 0.976 0 0 0.024 
29936 0.414164 4.3715e+13 0.00700392 0.982 0 0 0.018 
30040 0.41273 5.55013e+13 0.00889229 0.987 0 0 0.013 
30144 0.411306 6.96445e+13 0.0111583 0.99 0 0 0.01 
30248 0.409892 8.64745e+13 0.0138547 0.993 0 0 0.007 
30352 0.408488 1.06271e+14 0.0170264 0.995 0 0 0.005 
30456 0.407093 1.29257e+14 0.0207093 0.997 0 0 0.003 
30560 0.405707 1.55606e+14 0.0249308 0.997 0 0 0.003 
30664 0.404331 1.85234e+14 0.0296777 0.997 0 0 0.003 
30768 0.402965 2.17919e+14 0.0349144 0.997 0 0 0.003 
30872 0.401607 2.52852e+14 0.0405114 0.995 0 0 0.005 
30976 0.400259 2.88825e+14 0.0462749 0.992 0 0 0.008 
31080 0.39892 3.23682e+14 0.0518596 0.989 0 0 0.011 
31184 0.397589 3.54209e+14 0.0567505 0.985 0 0 0.015 
31288 0.396268 3.76111e+14 0.0602596 0.981 0 0 0.019 
31392 0.394955 3.83965e+14 0.061518 0.976 0 0 0.024 
31496 0.393651 3.72e+14 0.059601 0.973 0 0 0.027 
31600 0.392355 3.34558e+14 0.0536021 0.97 0 0 0.03 
31704 0.391068 2.67118e+14 0.042797 0.969 0 0 0.031 
31808 0.389789 1.6631e+14 0.0266458 0.969 0 0 0.031 
31912 0.388519 3.11654e+13 0.00499325 0.969 0 0 0.031 
32016 0.387257 1.3051e+12 0.000209101 0.968 0 0 0.032 
32120 0.386003 2.28634e+11 3.66313e-05 0.961 0 0 0.039 
32224 0.384757 3.37079e+10 5.4006e-06 0.893 0 0 0.107 
32328 0.38352 3.80844e+10 6.1018e-06 0.878 0 0 0.122 
32432 0.38229 4.14932e+10 6.64794e-06 0.858 0 0 0.142 
32536 0.381068 4.39155e+10 7.03604e-06 0.833 0 0 0.167 
32640 0.379854 4.51877e+10 7.23986e-06 0.8 0 0 0.2 
32744 0.378647 4.53653e+10 7.26832e-06 0.759 0 0 0.241 
32848 0.377448 4.42202e+10 7.08486e-06 0.704 0 0 0.296 
32952 0.376257 4.20756e+10 6.74125e-06 0.631 0 0 0.369 
33056 0.375073 3.90398e+10 6.25487e-06 0.533 0 0 0.467 
33160 0.373897 3.54236e+10 5.67549e-06 0.402 0 0 0.598 
33264 0.372728 3.1781e+10 5.09188e-06 0.231 0 0 0.769 
33368 0.371566 2.88136e+10 4.61645e-06 0.026 0 0 0.974 
33472 0.370412 2.74597e+10 4.39953e-06 -0.165 0 0 0.835 
33576 0.369264 2.89298e+10 4.63507e-06 -0.255 0 0 0.745 
33680 0.368124 3.47212e+10 5.56296e-06 -0.18 0 0 0.82 
33784 0.366991 4.66258e+10 7.47027e-06 0.016 0 0 0.984 
33888 0.365865 6.6977e+10 1.07309e-05 0.236 0 0 0.764 
33992 0.364745 9.83524e+10 1.57578e-05 0.424 0 0 0.576 
34096 0.363633 1.43958e+11 2.30646e-05 0.566 0 0 0.434 
34200 0.362527 2.0757e+11 3.32564e-05 0.671 0 0 0.329 
34304 0.361428 2.93611e+11 4.70416e-05 0.747 0 0 0.253 
34408 0.360335 4.07353e+11 6.52652e-05 0.802 0 0 0.198 
34512 0.35925 5.54857e+11 8.88979e-05 0.844 0 0 0.156 
34616 0.35817 7.4305e+11 0.00011905 0.875 0 0 0.125 
34720 0.357097 9.78895e+11 0.000156836 0.899 0 0 0.101 
34824 0.356031 1.27148e+12 0.000203713 0.918 0 0 0.082 
34928 0.354971 1.62973e+12 0.000261112 0.933 0 0 0.067 
35032 0.353917 2.06411e+12 0.000330707 0.945 0 0 0.055 
35136 0.352869 2.58643e+12 0.000414391 0.955 0 0 0.045 
35240 0.351828 3.20849e+12 0.000514056 0.963 0 0 0.037 
35344 0.350793 3.94566e+12 0.000632165 0.969 0 0 0.031 
35448 0.349764 4.80982e+12 0.000770619 0.975 0 0 0.025 
35552 0.34874 5.81756e+12 0.000932076 0.979 0 0 0.021 
35656 0.347723 6.98302e+12 0.0011188 0.983 0 0 0.017 
35760 0.346712 8.322e+12 0.00133333 0.986 0 0 0.014 
35864 0.345707 9.85042e+12 0.00157821 0.989 0 0 0.011 
35968 0.344707 1.1583e+13 0.00185579 0.991 0 0 0.009 
36072 0.343713 1.35368e+13 0.00216884 0.993 0 0 0.007 
36176 0.342725 1.57191e+13 0.00251848 0.995 0 0 0.005 
36280 0.341743 1.81433e+13 0.00290687 0.996 0 0 0.004 
36384 0.340766 2.08147e+13 0.00333488 0.997 0 0 0.003 
36488 0.339794 2.37357e+13 0.00380288 0.998 0 0 0.002 
36592 0.338829 2.69069e+13 0.00431096 0.999 0 0 0.001 
36696 0.337868 3.03105e+13 0.00485628 0.999 0 0 0.001 
36800 0.336914 3.39384e+13 0.00543753 0.999 0 0 0.001 
36904 0.335964 3.77473e+13 0.00604778 0.999 0 0 0.001 
37008 0.33502 4.17079e+13 0.00668235 0.999 0 0 0.001 
37112 0.334081 4.57581e+13 0.00733125 0.998 0 0 0.002 
37216 0.333148 4.98255e+13 0.00798292 0.998 0 0 0.002 
37320 0.332219 5.38255e+13 0.00862379 0.997 0 0 0.003 
37424 0.331296 5.76396e+13 0.00923489 0.996 0 0 0.004 
37528 0.330378 6.11541e+13 0.00979796 0.994 0 0 0.006 
37632 0.329465 6.42079e+13 0.0102872 0.992 0 0 0.008 
37736 0.328557 6.66636e+13 0.0106807 0.989 0 0 0.011 
37840 0.327654 6.83491e+13 0.0109507 0.986 0 0 0.014 
37944 0.326756 6.90995e+13 0.011071 0.982 0 0 0.018 
38048 0.325863 6.87742e+13 0.0110188 0.976 0 0 0.024 
38152 0.324974 6.72870e+13 0.0107806 0.969 0 0 0.031 
38256 0.324091 6.46706e+13 0.0103614 0.96 0 0 0.04 
38360 0.323212 6.09884e+13 0.00977142 0.949 0 0 0.051 
38464 0.322338 5.65594e+13 0.00906181 0.934 0 0 0.066 
38568 0.321469 5.19568e+13 0.0083244 0.917 0 0 0.083 
38672 0.320605 4.81213e+13 0.00770988 0.897 0 0 0.103 
38776 0.319745 4.6415e+13 0.00743649 0.881 0 0 0.119 
38880 0.318889 4.86229e+13 0.00779024 0.878 0 0 0.122 
38984 0.318039 5.69102e+13 0.00911802 0.891 0 0 0.109 
39088 0.317192 7.35438e+13 0.011783 0.916 0 0 0.084 
39192 0.316351 1.00687e+14 0.0161318 0.942 0 0 0.058 
39296 0.315514 1.398e+14 0.0223984 0.963 0 0 0.037 
39400 0.314681 1.91736e+14 0.0307195 0.978 0 0 0.022 
39504 0.313852 2.5678e+14 0.0411407 0.988 0 0 0.012 
39608 0.313028 3.35636e+14 0.0537748 0.994 0 0 0.006 
39712 0.312208 4.28983e+14 0.0687307 0.998 0 0 0.002 
39816 0.311393 5.39235e+14 0.086395 0.999 0 0 0.001 
39920 0.310582 1.75846e+14 0.0281737 1 0 0 0 
40024 0.309775 6.52748e+12 0.00104582 0.998 0 0 0.002 
40128 0.308972 1.64941e+12 0.000264264 0.991 0 0 0.009 
40232 0.308173 3.73392e+11 5.98241e-05 0.958 0 0 0.042 
40336 0.307379 4.5435e+11 7.27949e-05 0.964 0 0 0.036 
40440 0.306588 5.48374e+11 8.78592e-05 0.969 0 0 0.031 
40544 0.305802 6.57246e+11 0.000105302 0.973 0 0 0.027 
40648 0.305019 7.82536e+11 0.000125376 0.977 0 0 0.023 
40752 0.304241 9.25823e+11 0.000148333 0.981 0 0 0.019 
40856 0.303466 1.08867e+12 0.000174424 0.983 0 0 0.017 
40960 0.302696 1.27291e+12 0.000203943 0.986 0 0 0.014 
41064 0.301929 1.47991e+12 0.000237108 0.988 0 0 0.012 
41168 0.301166 1.71227e+12 0.000274336 0.99 0 0 0.01 
41272 0.300408 1.97024e+12 0.000315668 0.992 0 0 0.008 
41376 0.299652 2.25751e+12 0.000361693 0.993 0 0 0.007 
41480 0.298901 2.57385e+12 0.000412376 0.995 0 0 0.005 
41584 0.298154 2.92132e+12 0.000468046 0.996 0 0 0.004 
41688 0.29741 3.30139e+12 0.000528941 0.997 0 0 0.003 
41792 0.29667 3.71355e+12 0.000594976 0.997 0 0 0.003 
41896 0.295933 4.15952e+12 0.000666429 0.998 0 0 0.002 
42000 0.2952 4.63781e+12 0.000743059 0.999 0 0 0.001 
42104 0.294471 5.14982e+12 0.000825092 0.999 0 0 0.001 
42208 0.293746 5.6923e+12 0.000912007 0.999 0 0 0.001 
42312 0.293024 6.26584e+12 0.0010039 0.999 0 0 0.001 
42416 0.292305 6.86664e+12 0.00110016 0.999 0 0 0.001 
42520 0.29159 7.49202e+12 0.00120035 0.999 0 0 0.001 
42624 0.290879 8.13798e+12 0.00130385 0.999 0 0 0.001 
42728 0.290171 8.79842e+12 0.00140966 0.999 0 0 0.001 
42832 0.289466 9.46822e+12 0.00151698 0.998 0 0 0.002 
42936 0.288765 1.01364e+13 0.00162402 0.998 0 0 0.002 
43040 0.288067 1.07985e+13 0.00173011 0.997 0 0 0.003 
43144 0.287373 1.1443e+13 0.00183338 0.996 0 0 0.004 
